# Input file for run_new_param.py for atm mls, co2 3 
#  File format: 
#  - 6 fields, free format
#  - levels from bottom to top
#  - VMRs in absolute fraction (not ppm)
#  - Pressure in hPa, temperature in K
#  Pressure (hPa), temperature (K), CO2 VMR, O VMR, O2 VMR, N2 VMR
# 
1.0250e+03 2.9060e+02 3.9750e-04 1.0000e-21 2.0950e-01 7.8120e-01
9.0990e+02 2.8690e+02 3.9790e-04 1.0000e-21 2.0950e-01 7.8120e-01
8.0760e+02 2.8320e+02 3.9840e-04 1.0000e-21 2.0950e-01 7.8120e-01
7.1450e+02 2.7810e+02 3.9900e-04 1.0000e-21 2.0950e-01 7.8120e-01
6.3150e+02 2.7260e+02 3.9920e-04 1.0000e-21 2.0950e-01 7.8120e-01
5.5580e+02 2.6630e+02 3.9940e-04 1.0000e-21 2.0950e-01 7.8120e-01
4.8860e+02 2.5980e+02 3.9960e-04 1.0000e-21 2.0950e-01 7.8120e-01
4.2720e+02 2.5270e+02 3.9970e-04 1.0000e-21 2.0950e-01 7.8120e-01
3.7310e+02 2.4550e+02 3.9980e-04 1.0000e-21 2.0950e-01 7.8120e-01
3.2350e+02 2.3840e+02 3.9980e-04 1.0000e-21 2.0950e-01 7.8120e-01
2.8000e+02 2.3160e+02 3.9970e-04 1.0000e-21 2.0950e-01 7.8120e-01
2.4110e+02 2.2550e+02 3.9950e-04 1.0000e-21 2.0950e-01 7.8120e-01
2.0700e+02 2.2090e+02 3.9930e-04 1.0000e-21 2.0950e-01 7.8120e-01
1.7730e+02 2.1730e+02 3.9910e-04 1.0000e-21 2.0950e-01 7.8120e-01
1.5140e+02 2.1540e+02 3.9900e-04 1.0000e-21 2.0950e-01 7.8120e-01
1.2920e+02 2.1390e+02 3.9890e-04 1.0000e-21 2.0950e-01 7.8120e-01
1.1020e+02 2.1320e+02 3.9870e-04 1.0000e-21 2.0950e-01 7.8120e-01
9.3940e+01 2.1360e+02 3.9840e-04 1.0000e-21 2.0950e-01 7.8120e-01
8.0120e+01 2.1430e+02 3.9790e-04 1.0000e-21 2.0950e-01 7.8120e-01
6.8390e+01 2.1540e+02 3.9720e-04 1.0000e-21 2.0950e-01 7.8120e-01
5.8440e+01 2.1660e+02 3.9630e-04 1.0000e-21 2.0950e-01 7.8120e-01
4.9960e+01 2.1780e+02 3.9550e-04 1.0000e-21 2.0950e-01 7.8120e-01
4.2770e+01 2.1890e+02 3.9490e-04 1.0000e-21 2.0950e-01 7.8120e-01
3.6640e+01 2.2020e+02 3.9440e-04 1.0000e-21 2.0950e-01 7.8120e-01
3.1410e+01 2.2160e+02 3.9410e-04 1.0000e-21 2.0950e-01 7.8120e-01
2.6970e+01 2.2340e+02 3.9380e-04 1.0000e-21 2.0950e-01 7.8120e-01
2.3180e+01 2.2520e+02 3.9350e-04 1.0000e-21 2.0950e-01 7.8120e-01
1.9950e+01 2.2710e+02 3.9330e-04 1.0000e-21 2.0950e-01 7.8120e-01
1.7200e+01 2.2920e+02 3.9320e-04 1.0000e-21 2.0950e-01 7.8120e-01
1.4840e+01 2.3130e+02 3.9310e-04 1.0000e-21 2.0950e-01 7.8120e-01
1.2830e+01 2.3360e+02 3.9300e-04 1.0000e-21 2.0950e-01 7.8120e-01
1.1100e+01 2.3580e+02 3.9290e-04 1.0000e-21 2.0950e-01 7.8120e-01
9.6280e+00 2.3840e+02 3.9280e-04 1.0000e-21 2.0950e-01 7.8120e-01
8.3580e+00 2.4100e+02 3.9270e-04 1.0000e-21 2.0950e-01 7.8120e-01
7.2700e+00 2.4380e+02 3.9270e-04 1.0000e-21 2.0950e-01 7.8120e-01
6.3330e+00 2.4670e+02 3.9260e-04 1.0000e-21 2.0950e-01 7.8120e-01
5.5250e+00 2.4950e+02 3.9260e-04 1.0080e-21 2.0950e-01 7.8120e-01
4.8290e+00 2.5230e+02 3.9250e-04 1.0850e-21 2.0950e-01 7.8120e-01
4.2250e+00 2.5510e+02 3.9250e-04 1.3160e-21 2.0950e-01 7.8120e-01
3.7050e+00 2.5790e+02 3.9250e-04 1.7900e-21 2.0950e-01 7.8120e-01
3.2500e+00 2.6060e+02 3.9250e-04 2.7810e-21 2.0950e-01 7.8120e-01
2.8590e+00 2.6330e+02 3.9240e-04 4.9930e-21 2.0950e-01 7.8120e-01
2.5150e+00 2.6600e+02 3.9240e-04 1.0110e-20 2.0950e-01 7.8120e-01
2.2170e+00 2.6800e+02 3.9240e-04 2.1250e-20 2.0950e-01 7.8120e-01
1.9550e+00 2.7010e+02 3.9240e-04 4.7190e-20 2.0950e-01 7.8120e-01
1.7260e+00 2.7110e+02 3.9240e-04 1.0950e-19 2.0950e-01 7.8120e-01
1.5240e+00 2.7220e+02 3.9240e-04 2.5610e-19 2.0950e-01 7.8120e-01
1.3470e+00 2.7210e+02 3.9240e-04 6.1560e-19 2.0950e-01 7.8120e-01
1.1900e+00 2.7190e+02 3.9240e-04 1.5440e-18 2.0950e-01 7.8120e-01
1.0510e+00 2.7090e+02 3.9240e-04 3.8150e-18 2.0950e-01 7.8120e-01
9.2770e-01 2.6980e+02 3.9240e-04 9.1140e-18 2.0950e-01 7.8120e-01
8.1830e-01 2.6820e+02 3.9240e-04 2.2600e-17 2.0950e-01 7.8120e-01
7.2170e-01 2.6650e+02 3.9240e-04 5.7100e-17 2.0950e-01 7.8120e-01
6.3560e-01 2.6450e+02 3.9240e-04 1.3860e-16 2.0950e-01 7.8120e-01
5.5960e-01 2.6240e+02 3.9250e-04 3.2330e-16 2.0950e-01 7.8120e-01
4.9170e-01 2.5970e+02 3.9250e-04 7.5440e-16 2.0950e-01 7.8120e-01
4.3190e-01 2.5710e+02 3.9260e-04 1.7200e-15 2.0950e-01 7.8120e-01
3.7850e-01 2.5420e+02 3.9260e-04 3.7350e-15 2.0950e-01 7.8120e-01
3.3150e-01 2.5120e+02 3.9250e-04 7.7790e-15 2.0950e-01 7.8120e-01
2.8970e-01 2.4820e+02 3.9240e-04 1.6100e-14 2.0950e-01 7.8120e-01
2.5290e-01 2.4520e+02 3.9230e-04 3.2840e-14 2.0950e-01 7.8120e-01
2.2030e-01 2.4200e+02 3.9210e-04 6.5720e-14 2.0950e-01 7.8120e-01
1.9160e-01 2.3880e+02 3.9190e-04 1.2710e-13 2.0950e-01 7.8120e-01
1.6640e-01 2.3560e+02 3.9170e-04 2.4210e-13 2.0950e-01 7.8120e-01
1.4410e-01 2.3230e+02 3.9150e-04 4.8980e-13 2.0950e-01 7.8120e-01
1.2470e-01 2.2900e+02 3.9130e-04 1.1230e-12 2.0950e-01 7.8120e-01
1.0750e-01 2.2570e+02 3.9110e-04 3.0920e-12 2.0950e-01 7.8120e-01
9.2630e-02 2.2240e+02 3.9080e-04 9.5590e-12 2.0950e-01 7.8120e-01
7.9600e-02 2.1900e+02 3.9050e-04 3.3460e-11 2.0950e-01 7.8120e-01
6.8250e-02 2.1580e+02 3.9020e-04 1.2530e-10 2.0950e-01 7.8120e-01
5.8390e-02 2.1270e+02 3.8980e-04 4.3950e-10 2.0950e-01 7.8120e-01
4.9850e-02 2.0960e+02 3.8940e-04 1.0880e-07 2.0950e-01 7.8120e-01
4.2460e-02 2.0670e+02 3.8870e-04 4.5890e-07 2.0950e-01 7.8120e-01
3.6090e-02 2.0400e+02 3.8810e-04 1.0950e-06 2.0950e-01 7.8120e-01
3.0610e-02 2.0130e+02 3.8740e-04 2.0820e-06 2.0950e-01 7.8120e-01
2.5910e-02 1.9860e+02 3.8630e-04 3.5330e-06 2.0950e-01 7.8120e-01
2.1880e-02 1.9590e+02 3.8500e-04 5.6460e-06 2.0950e-01 7.8120e-01
1.8430e-02 1.9320e+02 3.8370e-04 8.7440e-06 2.0950e-01 7.8120e-01
1.5490e-02 1.9060e+02 3.8160e-04 1.3260e-05 2.0950e-01 7.8120e-01
1.2990e-02 1.8800e+02 3.7930e-04 1.9730e-05 2.0950e-01 7.8120e-01
1.0870e-02 1.8560e+02 3.7700e-04 2.8750e-05 2.0950e-01 7.8120e-01
9.0760e-03 1.8330e+02 3.7330e-04 4.1980e-05 2.0940e-01 7.8120e-01
7.5610e-03 1.8120e+02 3.6950e-04 6.2960e-05 2.0930e-01 7.8130e-01
6.2860e-03 1.7920e+02 3.6540e-04 9.8060e-05 2.0930e-01 7.8130e-01
5.2160e-03 1.7740e+02 3.6000e-04 1.6070e-04 2.0910e-01 7.8140e-01
4.3210e-03 1.7580e+02 3.5470e-04 2.8110e-04 2.0890e-01 7.8150e-01
3.5740e-03 1.7420e+02 3.4860e-04 5.3150e-04 2.0860e-01 7.8150e-01
2.9510e-03 1.7280e+02 3.4190e-04 1.0450e-03 2.0810e-01 7.8160e-01
2.4340e-03 1.7160e+02 3.3530e-04 1.9320e-03 2.0740e-01 7.8140e-01
2.0040e-03 1.7040e+02 3.2750e-04 3.3720e-03 2.0650e-01 7.8100e-01
1.6500e-03 1.6950e+02 3.1990e-04 5.5790e-03 2.0530e-01 7.8000e-01
1.3570e-03 1.6900e+02 3.1190e-04 8.7900e-03 2.0380e-01 7.7840e-01
1.1170e-03 1.6940e+02 3.0340e-04 1.3220e-02 2.0200e-01 7.7590e-01
9.1990e-04 1.7040e+02 2.9520e-04 1.9010e-02 1.9980e-01 7.7240e-01
7.5940e-04 1.7180e+02 2.8630e-04 2.6100e-02 1.9730e-01 7.6800e-01
6.2860e-04 1.7370e+02 2.7750e-04 3.4140e-02 1.9450e-01 7.6290e-01
5.2190e-04 1.7610e+02 2.6880e-04 4.2440e-02 1.9150e-01 7.5780e-01
4.3490e-04 1.7910e+02 2.5920e-04 4.9920e-02 1.8850e-01 7.5350e-01
3.6380e-04 1.8250e+02 2.5010e-04 5.5400e-02 1.8570e-01 7.5100e-01
3.0550e-04 1.8640e+02 2.4070e-04 5.8170e-02 1.8330e-01 7.5080e-01
2.5770e-04 1.9090e+02 2.3040e-04 5.8390e-02 1.8120e-01 7.5290e-01
2.1820e-04 1.9610e+02 2.2070e-04 5.6950e-02 1.7930e-01 7.5640e-01
1.8570e-04 2.0160e+02 2.1070e-04 5.5020e-02 1.7730e-01 7.6050e-01
1.5870e-04 2.0770e+02 1.9990e-04 5.3490e-02 1.7510e-01 7.6450e-01
1.3630e-04 2.1440e+02 1.9000e-04 5.2840e-02 1.7250e-01 7.6790e-01
1.1760e-04 2.2160e+02 1.8050e-04 5.3170e-02 1.6970e-01 7.7060e-01
1.0200e-04 2.2960e+02 1.6990e-04 5.4440e-02 1.6670e-01 7.7260e-01
8.8960e-05 2.3790e+02 1.6030e-04 5.6550e-02 1.6340e-01 7.7390e-01
7.7970e-05 2.4690e+02 1.5150e-04 5.9370e-02 1.6010e-01 7.7470e-01
6.8690e-05 2.5620e+02 1.4280e-04 6.2800e-02 1.5660e-01 7.7500e-01
6.0810e-05 2.6600e+02 1.3410e-04 6.6730e-02 1.5300e-01 7.7480e-01
5.4090e-05 2.7620e+02 1.2620e-04 7.1060e-02 1.4950e-01 7.7420e-01
4.8350e-05 2.8750e+02 1.1910e-04 7.5710e-02 1.4590e-01 7.7340e-01
4.3420e-05 2.9880e+02 1.1260e-04 8.0630e-02 1.4230e-01 7.7220e-01
3.9170e-05 3.1200e+02 1.0580e-04 8.5750e-02 1.3880e-01 7.7080e-01
3.5500e-05 3.2520e+02 9.9710e-05 9.1020e-02 1.3530e-01 7.6920e-01
3.2300e-05 3.3640e+02 9.4200e-05 9.6400e-02 1.3190e-01 7.6740e-01
2.9470e-05 3.4370e+02 8.9140e-05 1.0190e-01 1.2860e-01 7.6540e-01
2.6950e-05 3.4930e+02 8.4470e-05 1.0740e-01 1.2530e-01 7.6330e-01
2.4690e-05 3.5640e+02 7.9750e-05 1.1290e-01 1.2220e-01 7.6100e-01
2.2670e-05 3.6810e+02 7.5360e-05 1.1840e-01 1.1910e-01 7.5870e-01
2.0890e-05 3.8350e+02 7.1380e-05 1.2400e-01 1.1620e-01 7.5630e-01
1.9320e-05 3.9910e+02 6.7780e-05 1.2940e-01 1.1330e-01 7.5380e-01
1.7920e-05 4.1500e+02 6.4480e-05 1.3490e-01 1.1050e-01 7.5120e-01
1.6680e-05 4.3080e+02 6.1480e-05 1.4030e-01 1.0790e-01 7.4860e-01
1.5560e-05 4.4650e+02 5.8670e-05 1.4560e-01 1.0530e-01 7.4600e-01
1.4560e-05 4.6170e+02 5.6060e-05 1.5080e-01 1.0290e-01 7.4330e-01
1.3650e-05 4.7640e+02 5.3640e-05 1.5580e-01 1.0050e-01 7.4070e-01
1.2830e-05 4.9060e+02 5.1410e-05 1.6080e-01 9.8220e-02 7.3810e-01
1.2080e-05 5.0440e+02 4.9340e-05 1.6570e-01 9.6020e-02 7.3550e-01
1.1390e-05 5.1780e+02 4.7390e-05 1.7050e-01 9.3890e-02 7.3290e-01
1.0760e-05 5.3080e+02 4.5580e-05 1.7520e-01 9.1840e-02 7.3030e-01
1.0180e-05 5.4340e+02 4.3890e-05 1.7990e-01 8.9860e-02 7.2770e-01
9.6490e-06 5.5550e+02 4.2350e-05 1.8440e-01 8.7940e-02 7.2510e-01
9.1540e-06 5.6730e+02 4.0980e-05 1.8890e-01 8.6080e-02 7.2250e-01
8.6950e-06 5.7880e+02 3.9680e-05 1.9330e-01 8.4280e-02 7.2000e-01
8.2680e-06 5.8990e+02 3.8450e-05 1.9770e-01 8.2530e-02 7.1740e-01
7.8700e-06 6.0060e+02 3.7280e-05 2.0200e-01 8.0840e-02 7.1480e-01
7.4990e-06 6.1100e+02 3.6180e-05 2.0630e-01 7.9200e-02 7.1230e-01
7.1520e-06 6.2110e+02 3.5120e-05 2.1050e-01 7.7610e-02 7.0970e-01
6.8270e-06 6.3090e+02 3.4110e-05 2.1460e-01 7.6060e-02 7.0710e-01
6.5230e-06 6.4030e+02 3.3150e-05 2.1880e-01 7.4570e-02 7.0450e-01
6.2360e-06 6.4950e+02 3.2230e-05 2.2290e-01 7.3120e-02 7.0190e-01
5.9670e-06 6.5840e+02 3.1360e-05 2.2690e-01 7.1710e-02 6.9930e-01
5.7130e-06 6.6700e+02 3.0340e-05 2.3090e-01 7.0340e-02 6.9660e-01
5.4730e-06 6.7540e+02 2.9360e-05 2.3490e-01 6.9010e-02 6.9400e-01
5.2470e-06 6.8350e+02 2.8430e-05 2.3890e-01 6.7720e-02 6.9130e-01
5.0330e-06 6.9130e+02 2.7540e-05 2.4280e-01 6.6460e-02 6.8870e-01
4.8300e-06 6.9900e+02 2.6690e-05 2.4660e-01 6.5250e-02 6.8600e-01
4.6390e-06 7.0630e+02 2.5880e-05 2.5050e-01 6.4060e-02 6.8340e-01
4.4570e-06 7.1350e+02 2.5100e-05 2.5430e-01 6.2920e-02 6.8070e-01
4.2840e-06 7.2040e+02 2.4350e-05 2.5800e-01 6.1800e-02 6.7810e-01
4.1200e-06 7.2710e+02 2.3630e-05 2.6180e-01 6.0710e-02 6.7540e-01
3.9640e-06 7.3360e+02 2.2950e-05 2.6550e-01 5.9650e-02 6.7270e-01
3.8150e-06 7.3990e+02 2.2290e-05 2.6920e-01 5.8630e-02 6.7000e-01
3.6730e-06 7.4600e+02 2.1650e-05 2.7290e-01 5.7630e-02 6.6730e-01
3.5380e-06 7.5200e+02 2.0980e-05 2.7650e-01 5.6650e-02 6.6460e-01
3.4100e-06 7.5770e+02 2.0300e-05 2.8010e-01 5.5700e-02 6.6190e-01
3.2870e-06 7.6330e+02 1.9640e-05 2.8370e-01 5.4780e-02 6.5910e-01
3.1700e-06 7.6870e+02 1.9010e-05 2.8730e-01 5.3880e-02 6.5640e-01
3.0580e-06 7.7390e+02 1.8400e-05 2.9090e-01 5.3000e-02 6.5360e-01
2.9500e-06 7.7900e+02 1.7820e-05 2.9450e-01 5.2150e-02 6.5090e-01
2.8480e-06 7.8390e+02 1.7270e-05 2.9810e-01 5.1310e-02 6.4810e-01
2.7490e-06 7.8860e+02 1.6730e-05 3.0160e-01 5.0500e-02 6.4530e-01
2.6550e-06 7.9330e+02 1.6210e-05 3.0510e-01 4.9710e-02 6.4240e-01
2.5650e-06 7.9770e+02 1.5720e-05 3.0870e-01 4.8930e-02 6.3960e-01
2.4790e-06 8.0210e+02 1.5240e-05 3.1220e-01 4.8180e-02 6.3670e-01
2.3960e-06 8.0630e+02 1.4780e-05 3.1570e-01 4.7440e-02 6.3390e-01
2.3160e-06 8.1030e+02 1.4340e-05 3.1920e-01 4.6720e-02 6.3100e-01
2.2400e-06 8.1430e+02 1.3920e-05 3.2270e-01 4.6020e-02 6.2810e-01
2.1670e-06 8.1810e+02 1.3500e-05 3.2620e-01 4.5330e-02 6.2520e-01
2.0960e-06 8.2180e+02 1.3080e-05 3.2970e-01 4.4660e-02 6.2220e-01
2.0280e-06 8.2540e+02 1.2680e-05 3.3320e-01 4.4010e-02 6.1930e-01
1.9630e-06 8.2890e+02 1.2300e-05 3.3670e-01 4.3370e-02 6.1630e-01
1.9010e-06 8.3230e+02 1.1930e-05 3.4020e-01 4.2740e-02 6.1330e-01
1.8400e-06 8.3560e+02 1.1570e-05 3.4370e-01 4.2130e-02 6.1030e-01
1.7820e-06 8.3880e+02 1.1220e-05 3.4720e-01 4.1530e-02 6.0730e-01
1.7260e-06 8.4180e+02 1.0890e-05 3.5070e-01 4.0940e-02 6.0430e-01
1.6730e-06 8.4480e+02 1.0570e-05 3.5420e-01 4.0360e-02 6.0120e-01
1.6210e-06 8.4770e+02 1.0260e-05 3.5770e-01 3.9800e-02 5.9820e-01
1.5710e-06 8.5050e+02 9.9610e-06 3.6120e-01 3.9250e-02 5.9510e-01
1.5230e-06 8.5330e+02 9.6730e-06 3.6470e-01 3.8710e-02 5.9200e-01
1.4760e-06 8.5590e+02 9.3910e-06 3.6820e-01 3.8180e-02 5.8890e-01
1.4310e-06 8.5850e+02 9.1200e-06 3.7170e-01 3.7660e-02 5.8580e-01
1.3880e-06 8.6090e+02 8.8610e-06 3.7520e-01 3.7150e-02 5.8260e-01
1.3470e-06 8.6330e+02 8.6130e-06 3.7870e-01 3.6650e-02 5.7950e-01
1.3060e-06 8.6570e+02 8.3600e-06 3.8220e-01 3.6160e-02 5.7630e-01
1.2670e-06 8.6790e+02 8.1150e-06 3.8570e-01 3.5680e-02 5.7310e-01
1.2300e-06 8.7010e+02 7.8830e-06 3.8920e-01 3.5200e-02 5.6990e-01
1.1940e-06 8.7230e+02 7.6570e-06 3.9270e-01 3.4740e-02 5.6670e-01
1.1590e-06 8.7430e+02 7.4370e-06 3.9630e-01 3.4280e-02 5.6350e-01
1.1250e-06 8.7630e+02 7.2240e-06 3.9980e-01 3.3830e-02 5.6030e-01
1.0920e-06 8.7820e+02 7.0160e-06 4.0330e-01 3.3390e-02 5.5710e-01
1.0600e-06 8.8010e+02 6.8150e-06 4.0680e-01 3.2960e-02 5.5380e-01
1.0300e-06 8.8190e+02 6.6260e-06 4.1040e-01 3.2530e-02 5.5060e-01
1.0000e-06 8.8370e+02 6.4370e-06 4.1390e-01 3.2110e-02 5.4730e-01
9.7180e-07 8.8540e+02 6.2590e-06 4.1740e-01 3.1700e-02 5.4400e-01
9.4410e-07 8.8710e+02 6.0840e-06 4.2100e-01 3.1290e-02 5.4070e-01
9.1730e-07 8.8870e+02 5.9150e-06 4.2450e-01 3.0890e-02 5.3740e-01
8.9140e-07 8.9030e+02 5.7510e-06 4.2800e-01 3.0500e-02 5.3410e-01
8.6640e-07 8.9180e+02 5.5930e-06 4.3160e-01 3.0110e-02 5.3080e-01
