# Output of new param: X, pres (hPa), CR (K/day)
# 
   -0.03    1.026e+03      -0.17
    0.10    9.050e+02      -0.19
    0.23    7.985e+02      -0.21
    0.35    7.019e+02      -0.21
    0.48    6.168e+02      -0.21
    0.62    5.390e+02      -0.19
    0.75    4.706e+02      -0.16
    0.90    4.084e+02      -0.11
    1.04    3.536e+02      -0.05
    1.19    3.049e+02      -0.04
    1.34    2.626e+02      -0.08
    1.49    2.259e+02      -0.13
    1.64    1.944e+02      -0.19
    1.79    1.673e+02      -0.23
    1.94    1.440e+02      -0.28
    2.09    1.239e+02      -0.34
    2.24    1.067e+02      -0.41
    2.39    9.190e+01      -0.51
    2.54    7.916e+01      -0.62
    2.69    6.822e+01      -0.73
    2.83    5.880e+01      -0.85
    2.98    5.069e+01      -0.93
    3.13    4.370e+01      -0.99
    3.28    3.768e+01      -1.03
    3.43    3.249e+01      -1.09
    3.57    2.802e+01      -1.17
    3.72    2.418e+01      -1.27
    3.87    2.089e+01      -1.39
    4.01    1.805e+01      -1.57
    4.16    1.563e+01      -1.80
    4.30    1.355e+01      -2.04
    4.44    1.177e+01      -2.31
    4.58    1.024e+01      -2.60
    4.72    8.918e+00      -2.93
    4.85    7.790e+00      -3.30
    4.99    6.808e+00      -3.67
    5.12    5.969e+00      -4.06
    5.25    5.235e+00      -4.49
    5.38    4.604e+00      -4.93
    5.51    4.051e+00      -5.39
    5.63    3.573e+00      -5.87
    5.76    3.153e+00      -6.39
    5.88    2.788e+00      -6.90
    6.01    2.466e+00      -7.39
    6.13    2.185e+00      -7.82
    6.25    1.936e+00      -8.18
    6.37    1.717e+00      -8.47
    6.49    1.523e+00      -8.72
    6.61    1.351e+00      -8.91
    6.73    1.199e+00      -9.02
    6.85    1.064e+00      -9.09
    6.97    9.437e-01      -9.06
    7.09    8.366e-01      -8.95
    7.21    7.416e-01      -8.79
    7.33    6.566e-01      -8.55
    7.45    5.812e-01      -8.27
    7.57    5.136e-01      -7.95
    7.70    4.537e-01      -7.63
    7.82    4.001e-01      -7.30
    7.95    3.525e-01      -6.96
    8.08    3.100e-01      -6.57
    8.21    2.724e-01      -6.11
    8.34    2.387e-01      -5.58
    8.47    2.090e-01      -5.10
    8.61    1.824e-01      -4.64
    8.75    1.591e-01      -4.23
    8.89    1.383e-01      -3.84
    9.03    1.200e-01      -3.45
    9.17    1.039e-01      -3.07
    9.32    8.974e-02      -2.71
    9.47    7.733e-02      -2.28
    9.62    6.644e-02      -1.77
    9.77    5.690e-02      -1.11
    9.93    4.857e-02      -0.43
   10.09    4.131e-02       0.17
   10.26    3.499e-02       0.70
   10.43    2.951e-02       1.22
   10.61    2.477e-02       1.78
   10.79    2.068e-02       2.26
   10.97    1.717e-02       2.58
   11.16    1.417e-02       2.73
   11.36    1.163e-02       2.80
   11.57    9.481e-03       2.92
   11.78    7.679e-03       3.13
   11.99    6.176e-03       3.49
   12.22    4.932e-03       4.09
   12.45    3.916e-03       4.45
   12.69    3.095e-03       4.44
   12.92    2.443e-03       4.58
   13.16    1.928e-03       4.70
   13.39    1.524e-03       4.58
   13.63    1.209e-03       3.85
   13.85    9.633e-04       2.37
   14.07    7.722e-04      -0.06
   14.29    6.233e-04      -3.57
   14.49    5.071e-04      -8.44
   14.69    4.161e-04     -14.95
   14.88    3.444e-04     -23.20
   15.06    2.876e-04     -32.55
   15.23    2.421e-04     -42.24
   15.40    2.055e-04     -51.03
   15.55    1.757e-04     -57.98
   15.70    1.514e-04     -62.38
   15.85    1.314e-04     -65.09
   15.98    1.148e-04     -65.65
   16.11    1.008e-04     -65.86
   16.23    8.904e-05     -65.72
   16.35    7.897e-05     -65.32
   16.47    7.032e-05     -63.98
   16.58    6.280e-05     -61.44
   16.69    5.620e-05     -59.22
   16.80    5.041e-05     -57.07
   16.91    4.532e-05     -55.93
   17.01    4.086e-05     -55.30
   17.11    3.695e-05     -55.01
   17.21    3.353e-05     -55.25
   17.30    3.053e-05     -55.72
   17.39    2.790e-05     -55.81
   17.48    2.555e-05     -54.02
   17.57    2.344e-05     -51.65
   17.65    2.155e-05     -50.70
   17.73    1.987e-05     -50.47
   17.81    1.837e-05     -50.31
   17.89    1.704e-05     -50.04
   17.96    1.584e-05     -49.59
   18.03    1.477e-05     -48.98
   18.10    1.380e-05     -48.28
   18.16    1.293e-05     -47.48
   18.23    1.213e-05     -46.43
   18.29    1.141e-05     -45.26
   18.35    1.074e-05     -44.06
   18.41    1.013e-05     -42.90
   18.46    9.570e-06     -41.73
   18.52    9.052e-06     -40.53
   18.57    8.573e-06     -39.33
   18.63    8.129e-06     -38.14
   18.68    7.716e-06     -36.97
   18.73    7.333e-06     -35.81
   18.78    6.975e-06     -34.64
   18.83    6.641e-06     -33.48
   18.88    6.328e-06     -32.31
   18.93    6.036e-06     -31.13
   18.97    5.761e-06     -29.92
   19.02    5.503e-06     -28.72
   19.06    5.260e-06     -27.55
   19.11    5.031e-06     -26.42
   19.15    4.816e-06     -25.35
   19.19    4.612e-06     -24.31
   19.24    4.420e-06     -23.30
   19.28    4.238e-06     -22.32
   19.32    4.065e-06     -21.37
   19.36    3.902e-06     -20.45
   19.40    3.747e-06     -19.55
   19.44    3.600e-06     -18.68
   19.48    3.460e-06     -17.82
   19.52    3.327e-06     -16.99
   19.56    3.201e-06     -16.20
   19.60    3.080e-06     -15.44
   19.64    2.966e-06     -14.73
   19.67    2.856e-06     -14.05
   19.71    2.752e-06     -13.40
   19.75    2.652e-06     -12.77
   19.78    2.557e-06     -12.17
   19.82    2.466e-06     -11.60
   19.86    2.379e-06     -11.06
   19.89    2.295e-06     -10.54
   19.93    2.215e-06     -10.05
   19.96    2.139e-06      -9.58
   20.00    2.066e-06      -9.13
   20.03    1.996e-06      -8.70
   20.07    1.928e-06      -8.28
   20.10    1.864e-06      -7.90
   20.13    1.802e-06      -7.54
   20.17    1.742e-06      -7.18
   20.20    1.685e-06      -6.85
   20.23    1.630e-06      -6.53
   20.27    1.577e-06      -6.23
   20.30    1.527e-06      -5.94
   20.33    1.478e-06      -5.67
   20.36    1.431e-06      -5.41
   20.40    1.385e-06      -5.15
   20.43    1.342e-06      -4.92
   20.46    1.300e-06      -4.69
   20.49    1.259e-06      -4.47
   20.52    1.220e-06      -4.27
   20.56    1.183e-06      -4.07
   20.59    1.147e-06      -3.89
   20.62    1.112e-06      -3.71
   20.65    1.078e-06      -3.54
   20.68    1.046e-06      -3.38
   20.71    1.014e-06      -3.22
   20.74    9.839e-07      -3.07
   20.77    9.546e-07      -2.93
   20.80    9.264e-07      -2.80
   20.83    8.991e-07      -2.67
   20.86    8.728e-07      -2.56
   20.89    8.473e-07      -2.45
   20.92    8.227e-07      -2.35
   20.95    7.988e-07      -2.26
   20.98    7.758e-07      -2.17
   21.01    7.536e-07      -2.10
